Time (J2000),Coord_X (km),Coord_Y (km),Coord_Z (km)
2451441.5,21000.0,0.0,0.0
2451441.503540715,20957.720205903748,1331.902312787448,0.0
2451441.5070814304,20831.051069459612,2658.4415250499123,0.0
2451441.510622145,20620.502642492476,3974.2761315629737,0.0
2451441.5141628603,20326.922729348575,5274.107730814892,0.0
2451441.5177035755,19951.493472559232,6552.702359667921,0.0
2451441.5212442908,19495.726593270083,7804.911568838822,0.0
2451441.524785006,18961.457304185493,9025.693153950684,0.0
2451441.528325721,18350.83691845678,10210.131458103384,0.0
2451441.531866436,17666.324189360847,11353.457166508178,0.0
2451441.535407151,16910.675408345647,12451.066510277826,0.0
2451441.5389478663,16086.9333054969,13498.53980341262,0.0
2451441.5424885815,15198.414800154322,14491.659241078212,0.0
2451441.5460292967,14248.697642766283,15426.425881867754,0.0
2451441.549570012,13241.606008765943,16299.075750106458,0.0
2451441.5531107266,12181.19510103791,17106.094993114224,0.0
2451441.556651442,11071.734819832507,17844.234028943345,0.0
2451441.560192157,9917.692570202162,18510.52063233213,0.0
2451441.5637328723,8723.715273146894,19102.271902644286,0.0
2451441.5672735875,7494.610653446089,19617.105065568212,0.0
2451441.570814302,6235.327881879049,20052.94707022916,0.0
2451441.5743550174,4950.937645784636,20408.04293502737,0.0
2451441.5778957326,3646.611731032004,20680.96281326778,0.0
2451441.581436448,2327.6021979377865,20870.6077536452,0.0
2451441.584977163,999.2202323383212,20976.21412294001,0.0
2451441.588517878,-333.18524049448047,20997.35668114871,0.0
2451441.592058593,-1664.249093966254,20933.95029509362,0.0
2451441.595599308,-2988.6116036996486,20786.25027954243,0.0
2451441.5991400233,-4300.940029310763,20554.851370480254,0.0
2451441.6026807385,-5595.950087501504,20240.68533001312,0.0
2451441.6062214538,-6868.42722961805,19845.017193061376,0.0
2451441.6097621685,-8113.247639469358,19369.440176160882,0.0
2451441.6133028837,-9325.398864771454,18815.86926040703,0.0
2451441.616843599,-10499.999999951688,18186.53347955391,0.0
2451441.620384314,-11632.321341111785,17483.966947365705,0.0
2451441.6239250293,-12717.803429889556,16710.99865131174,0.0
2451441.6274657445,-13752.075412790218,15870.741061530214,0.0
2451441.6310064592,-14730.972641850069,14966.577599127986,0.0
2451441.6345471744,-15650.553443155895,14002.14901097381,0.0
2451441.6380878896,-16507.114989502443,12981.338710722746,0.0
2451441.641628605,-17297.208210180102,11908.257141396469,0.0
2451441.64516932,-18017.651677909842,10787.225223200203,0.0
2451441.6487100353,-18665.544421645984,9622.756956394094,0.0
2451441.65225075,-19238.2776062629,8419.541243813968,0.0
2451441.655791465,-19733.54503650485,7182.42301002816,0.0
2451441.6593321804,-20149.352445879133,5916.383693851005,0.0
2451441.6628728956,-20484.025524664325,4626.521188737677,0.0
2451441.666413611,-20736.216662207295,3318.029315651709,0.0
2451441.6699543255,-20904.910374189836,1996.1769096170801,0.0
2451441.6734950407,-20989.4273901133,666.2866036901421,0.0
2451441.677035756,-20989.42739003358,-666.2866032200905,0.0
2451441.680576471,-20904.910374378138,-1996.1769091671317,0.0
2451441.6841171863,-20736.21666231332,-3318.029315194163,0.0
2451441.6876579016,-20484.02552461366,-4626.521188247792,0.0
2451441.6911986163,-20149.352446286463,-5916.383693480175,0.0
2451441.6947393315,-19733.54503667048,-7182.423009589399,0.0
2451441.6982800467,-19238.277606206673,-8419.541243274507,0.0
2451441.701820762,-18665.544422020736,-9622.756956058802,0.0
2451441.705361477,-18017.651678136608,-10787.225222786226,0.0
2451441.708902192,-17297.208210342375,-11908.257140937545,0.0
2451441.712442907,-16507.1149898655,-12981.338710407048,0.0
2451441.7159836222,-15650.553443413206,-14002.149010568839,0.0
2451441.7195243374,-14730.972642297567,-14966.577598907756,0.0
2451441.7230650526,-13752.075413171064,-15870.741061241537,0.0
2451441.726605768,-12717.803430164771,-16710.99865088516,0.0
2451441.7301464826,-11632.321341665895,-17483.966947330242,0.0
2451441.733687198,-10500.000000371443,-18186.53347932043,0.0
2451441.737227913,-9325.398865090428,-18815.86925996249,0.0
2451441.740768628,-8113.247639970985,-19369.440176112752,0.0
2451441.7443093434,-6868.427230068818,-19845.017192879677,0.0
2451441.7478500586,-5595.950087947094,-20240.68532981006,0.0
2451441.7513907733,-4300.940029805889,-20554.851370464115,0.0
2451441.7549314885,-2988.6116041699015,-20786.25027938307,0.0
2451441.7584722037,-1664.249094469,-20933.950295243318,0.0
2451441.762012919,-333.18524098817363,-20997.356681176738,0.0
2451441.765553634,999.2202318370656,-20976.214122779475,0.0
2451441.769094349,2327.6021974769137,-20870.607754009376,0.0
2451441.772635064,3646.6117305443076,-20680.96281336365,0.0
2451441.7761757793,4950.937645235603,-20408.042934885336,0.0
2451441.7797164945,6235.32788145431,-20052.9470705429,0.0
2451441.7832572097,7494.610652970717,-19617.105065729942,0.0
2451441.786797925,8723.715272647574,-19102.27190275502,0.0
2451441.7903386396,9917.692569799528,-18510.520632646778,0.0
2451441.793879355,11071.734819360485,-17844.234029138654,0.0
2451441.79742007,12181.195100725849,-17106.09499354575,0.0
2451441.8009607852,13241.606008388779,-16299.07575044702,0.0
2451441.8045015004,14248.697642267063,-15426.425882075993,0.0
2451441.808042215,15198.414799995673,-14491.659241632791,0.0
2451441.8115829304,16086.933305169587,-13498.539803803145,0.0
2451441.8151236456,16910.675407837403,-12451.066510538656,0.0
2451441.818664361,17666.324189194154,-11353.457167005552,0.0
2451441.822205076,18350.83691817467,-10210.131458532218,0.0
2451441.825745791,18961.4573039184,-9025.693154387001,0.0
2451441.829286506,19495.726593137893,-7804.911569337559,0.0
2451441.832827221,19951.493472297927,-6552.702360119076,0.0
2451441.8363679363,20326.92272942346,-5274.10773136241,0.0
2451441.8399086515,20620.50264240553,-3974.2761320676627,0.0
2451441.8434493667,20831.05106926563,-2658.4415255355757,0.0
2451441.846990082,20957.720206053265,-1331.9023133165983,0.0
2451441.8505307967,20999.999999994343,-5.090735157864401e-07,0.0
